# Version 1.00
#
freq[Hz],db:Trc1_S21,ang:Trc1_S21,
1.000000000000000E+007,-1.048031014480333E-001,-9.599543633205082E+001,
9.995000000000000E+007,-6.355595390206286E-001,1.145868029763853E+002,
1.899000000000000E+008,-8.484909839128650E-001,-3.166765385268301E+001,
2.798500000000000E+008,-1.040272465750680E+000,-1.779844518846391E+002,
3.698000000000000E+008,-1.187131865203725E+000,3.605930454326010E+001,
4.597500000000000E+008,-1.332392531919406E+000,-1.096399574097226E+002,
5.497000000000000E+008,-1.450141283197794E+000,1.044557114590187E+002,
6.396500000000000E+008,-1.567697657322382E+000,-4.119609458759209E+001,
7.296000000000000E+008,-1.669811911071520E+000,1.731336789404872E+002,
8.195500000000000E+008,-1.763722011822916E+000,2.754418977411813E+001,
9.095000000000000E+008,-1.871940425887756E+000,-1.180040718583601E+002,
9.994500000000000E+008,-1.969338272988455E+000,9.643939062037728E+001,
1.089400000000000E+009,-2.043165122511521E+000,-4.909681213455316E+001,
1.179350000000000E+009,-2.129256156425372E+000,1.652755620563580E+002,
1.269300000000000E+009,-2.198760841962927E+000,1.982420902439207E+001,
1.359250000000000E+009,-2.299764703656804E+000,-1.256124886354903E+002,
1.449200000000000E+009,-2.371113621161504E+000,8.892404642851437E+001,
1.539150000000000E+009,-2.421484396988285E+000,-5.661209337183893E+001,
1.629100000000000E+009,-2.493253044906598E+000,1.578246839251367E+002,
1.719050000000000E+009,-2.575099334643386E+000,1.253981806137232E+001,
1.809000000000000E+009,-2.649458599133986E+000,-1.328035989638164E+002,
1.898950000000000E+009,-2.704041206075167E+000,8.192738094869739E+001,
1.988900000000000E+009,-2.757194809416830E+000,-6.374721962695544E+001,
2.078850000000000E+009,-2.856735702491209E+000,1.511521283066395E+002,
2.168800000000000E+009,-2.955558088306303E+000,5.565599121735533E+000,
2.258750000000000E+009,-2.966581575398424E+000,-1.396570317027644E+002,
2.348700000000000E+009,-3.063431494367281E+000,7.494558111076007E+001,
2.438650000000000E+009,-3.101272076614722E+000,-7.021470156705298E+001,
2.528600000000000E+009,-3.312684356259496E+000,1.440459605257045E+002,
2.618550000000000E+009,-3.238598122076165E+000,-8.034788141539337E-001,
2.708500000000000E+009,-3.245512504726203E+000,-1.462764806191613E+002,
2.798450000000000E+009,-3.328491236286398E+000,6.837450195956254E+001,
2.888400000000000E+009,-3.443841666203434E+000,-7.701639963835862E+001,
2.978350000000000E+009,-3.482991467116607E+000,1.382112887754986E+002,
3.068300000000000E+009,-3.496664508577785E+000,-7.640693084246929E+000,
3.158250000000000E+009,-3.544737201957334E+000,-1.533163540791429E+002,
3.248200000000000E+009,-3.624173571838425E+000,6.130516339170046E+001,
3.338150000000000E+009,-3.736677802429207E+000,-8.274731214380644E+001,
3.428100000000000E+009,-3.748201020878817E+000,1.308892069330140E+002,
3.518050000000000E+009,-3.879393052181503E+000,-1.447369511617874E+001,
3.608000000000000E+009,-3.874550945809930E+000,-1.603739653873311E+002,
3.697950000000000E+009,-3.876804536929390E+000,5.549130524035800E+001,
3.787900000000000E+009,-4.003757189917269E+000,-9.078759394613032E+001,
3.877850000000000E+009,-3.980943428640403E+000,1.246210614810997E+002,
3.967800000000000E+009,-3.989781013261447E+000,-2.151214747459240E+001,
4.057750000000000E+009,-4.098204509667193E+000,-1.657619762630422E+002,
4.147700000000000E+009,-4.101110766728030E+000,4.847941058460580E+001,
4.237650000000000E+009,-4.159467745941165E+000,-9.725008479169009E+001,
4.327600000000000E+009,-4.258462500023713E+000,1.166731298601889E+002,
4.417550000000000E+009,-4.216421259014766E+000,-2.708406103948558E+001,
4.507500000000000E+009,-4.277133881845654E+000,-1.731625170786642E+002,
4.597450000000000E+009,-4.289721408634209E+000,4.205744765180479E+001,
4.687400000000000E+009,-4.437972607014554E+000,-1.029251818977890E+002,
4.777350000000000E+009,-4.549283282433232E+000,1.110914889539513E+002,
4.867300000000000E+009,-4.536165221018898E+000,-3.299293656518291E+001,
4.957250000000000E+009,-4.606136775976885E+000,-1.789162972573253E+002,
5.047200000000000E+009,-4.536155521654757E+000,3.520134175734023E+001,
5.137150000000000E+009,-4.649610287600941E+000,-1.098380619502550E+002,
5.227100000000000E+009,-4.689829257903159E+000,1.053040272765438E+002,
5.317050000000000E+009,-4.733027319706928E+000,-3.997890912755698E+001,
5.407000000000000E+009,-4.725911081368674E+000,1.744745616321614E+002,
5.496950000000000E+009,-4.772635437717594E+000,2.914325093287782E+001,
5.586900000000000E+009,-4.921328400980987E+000,-1.163365637525376E+002,
5.676850000000000E+009,-4.873647099713010E+000,9.903675140566936E+001,
5.766800000000000E+009,-4.957170488400378E+000,-4.621100163561988E+001,
5.856750000000000E+009,-4.940717756313864E+000,1.677847271700967E+002,
5.946700000000000E+009,-5.204699963252486E+000,2.295908886663271E+001,
6.036650000000000E+009,-5.160437576019536E+000,-1.229979145546382E+002,
6.126600000000000E+009,-5.117157104764299E+000,9.197322013000772E+001,
6.216550000000000E+009,-5.151864127894236E+000,-5.379258248239556E+001,
6.306500000000000E+009,-5.204921643692167E+000,1.606489179459488E+002,
6.396450000000000E+009,-5.284777278306861E+000,1.581234222783444E+001,
6.486400000000000E+009,-5.414269566815170E+000,-1.296158649443118E+002,
6.576350000000000E+009,-5.371657938837231E+000,8.457555015206984E+001,
6.666300000000000E+009,-5.453074712497082E+000,-6.118511388042203E+001,
6.756250000000000E+009,-5.470650333840823E+000,1.535882540250842E+002,
6.846200000000000E+009,-5.703569572538317E+000,9.227548474509467E+000,
6.936150000000000E+009,-5.616124294289422E+000,-1.369351930421210E+002,
7.026100000000000E+009,-5.635641141713174E+000,7.748212324999423E+001,
7.116050000000000E+009,-5.789679984341444E+000,-6.834886588329847E+001,
7.206000000000000E+009,-5.989604361544076E+000,1.459281972630507E+002,
7.295950000000000E+009,-5.942645211708934E+000,1.915047624457504E+000,
7.385900000000000E+009,-5.975820725346163E+000,-1.434249565818816E+002,
7.475850000000000E+009,-6.151333815080206E+000,7.118074955537550E+001,
7.565800000000000E+009,-6.559774610792565E+000,-7.401994247478284E+001,
7.655750000000000E+009,-6.220795694075382E+000,1.410976971208317E+002,
7.745700000000000E+009,-6.192006378415012E+000,-3.018787988709371E+000,
7.835650000000000E+009,-6.192283353344721E+000,-1.484659763570395E+002,
7.925600000000000E+009,-6.501707791367378E+000,6.669001349684102E+001,
8.015550000000000E+009,-6.451471958632515E+000,-8.131121180605844E+001,
8.105500000000000E+009,-6.185987589365905E+000,1.383311855033480E+002,
8.195450000000000E+009,-6.187542526197107E+000,-9.383405149330850E+000,
8.285400000000000E+009,-6.339884525214847E+000,-1.553421445807936E+002,
8.375350000000000E+009,-6.555208932501394E+000,5.692850403649386E+001,
8.465300000000000E+009,-6.324504854262518E+000,-8.465972197000934E+001,
8.555250000000000E+009,-6.265961994461624E+000,1.286902023127470E+002,
8.645200000000000E+009,-6.416015556159793E+000,-1.982365532198614E+001,
8.735150000000000E+009,-6.668520358713475E+000,-1.670736210022140E+002,
8.825100000000000E+009,-6.909196142712330E+000,5.444634789035616E+001,
8.915050000000000E+009,-7.103137521763741E+000,-9.447315570348957E+001,
9.005000000000000E+009,-7.060773369203836E+000,1.225204234228732E+002,
9.094950000000000E+009,-6.832869748794207E+000,-2.798511316305931E+001,
9.184900000000000E+009,-7.169809272326026E+000,-1.657979243027438E+002,
9.274850000000000E+009,-8.331479856136763E+000,4.811322327749689E+001,
9.364800000000000E+009,-6.784784260506368E+000,-9.801020573282220E+001,
9.454750000000000E+009,-6.947230832256014E+000,1.110112006733873E+002,
9.544700000000000E+009,-6.837521044787081E+000,-2.986853307088404E+001,
9.634650000000000E+009,-7.297495444209432E+000,-1.719801763913518E+002,
9.724600000000000E+009,-6.727664019518848E+000,4.013299793051539E+001,
9.814550000000000E+009,-6.791042087115054E+000,-1.097708436085246E+002,
9.904500000000000E+009,-7.538427319952158E+000,1.042834958222809E+002,
9.994450000000000E+009,-7.775086681511360E+000,-4.158354055669004E+001,
1.008440000000000E+010,-7.082635063272309E+000,1.783797479854283E+002,
1.017435000000000E+010,-7.073065872608307E+000,2.989346668016181E+001,
1.026430000000000E+010,-8.279969187809133E+000,-1.138532752533687E+002,
1.035425000000000E+010,-8.995176636133445E+000,9.679308099013491E+001,
1.044420000000000E+010,-7.268402578693271E+000,-4.299011932292439E+001,
1.053415000000000E+010,-7.287995639726837E+000,1.710492673267575E+002,
1.062410000000000E+010,-7.559463041562781E+000,2.528275678722553E+001,
1.071405000000000E+010,-8.169695169379789E+000,-1.197341400414567E+002,
1.080400000000000E+010,-7.868447438855505E+000,9.566630067663108E+001,
1.089395000000000E+010,-7.531340362753978E+000,-4.990165418444574E+001,
1.098390000000000E+010,-7.615124324147843E+000,1.619856397277316E+002,
1.107385000000000E+010,-7.935987016724588E+000,1.490302029330117E+001,
1.116380000000000E+010,-8.061394303524883E+000,-1.259975773152717E+002,
1.125375000000000E+010,-8.288182852485720E+000,8.726732339139804E+001,
1.134370000000000E+010,-8.233288032817516E+000,-5.966447434709259E+001,
1.143365000000000E+010,-8.122575363751430E+000,1.554308639115961E+002,
1.152360000000000E+010,-7.912768620656922E+000,1.327885677613899E+001,
1.161355000000000E+010,-8.086020929639092E+000,-1.320570128820881E+002,
1.170350000000000E+010,-7.876265086556550E+000,8.004560545886876E+001,
1.179345000000000E+010,-8.106360394221575E+000,-6.866913387199736E+001,
1.188340000000000E+010,-7.766766402569662E+000,1.524455675294762E+002,
1.197335000000000E+010,-7.707596468114251E+000,3.874490402026178E+000,
1.206330000000000E+010,-7.735476332331406E+000,-1.418633910139375E+002,
1.215325000000000E+010,-7.672614473160139E+000,7.162678523617336E+001,
1.224320000000000E+010,-8.197592517423006E+000,-7.335048082529424E+001,
1.233315000000000E+010,-7.827804611524900E+000,1.403787065779446E+002,
1.242310000000000E+010,-7.742841855239745E+000,-7.657677610504795E+000,
1.251305000000000E+010,-8.151762209711954E+000,-1.533230396612693E+002,
1.260300000000000E+010,-8.391383674889616E+000,6.170468504634303E+001,
1.269295000000000E+010,-8.010171969282888E+000,-8.364654804372118E+001,
1.278290000000000E+010,-8.216195441298201E+000,1.303208606297331E+002,
1.287285000000000E+010,-8.293854501797190E+000,-1.546602991441075E+001,
1.296280000000000E+010,-8.015637351296268E+000,-1.614489187865997E+002,
1.305275000000000E+010,-8.063083058956714E+000,5.143491956184098E+001,
1.314270000000000E+010,-8.237307207520813E+000,-9.336978301470842E+001,
1.323265000000000E+010,-8.303324905518567E+000,1.192913089783811E+002,
1.332260000000000E+010,-8.349631365905928E+000,-2.686881613539089E+001,
1.341255000000000E+010,-8.499657498707332E+000,-1.719502873682349E+002,
1.350250000000000E+010,-8.704878087863039E+000,4.130223147827998E+001,
1.359245000000000E+010,-8.726671178101320E+000,-1.059387840705706E+002,
1.368240000000000E+010,-8.553071293675151E+000,1.098833067885886E+002,
1.377235000000000E+010,-8.636858312839083E+000,-3.348508719687766E+001,
1.386230000000000E+010,-8.949055383063785E+000,1.786594663969649E+002,
1.395225000000000E+010,-8.935394415359687E+000,3.193563908081747E+001,
1.404220000000000E+010,-8.592031661790378E+000,-1.149760126249526E+002,
1.413215000000000E+010,-8.772797582987332E+000,1.016373441668583E+002,
1.422210000000000E+010,-8.974465359129690E+000,-4.473999183008802E+001,
1.431205000000000E+010,-8.813929250071585E+000,1.664998626131228E+002,
1.440200000000000E+010,-8.926797925669465E+000,1.788320923218955E+001,
1.449195000000000E+010,-9.011726969030992E+000,-1.253358672273444E+002,
1.458190000000000E+010,-9.333941427679953E+000,8.843788662982283E+001,
1.467185000000000E+010,-9.007966529655509E+000,-5.963771834749208E+001,
1.476180000000000E+010,-9.634729843845745E+000,1.541579324578503E+002,
1.485175000000000E+010,-1.018824797164055E+001,1.119052736667520E+001,
1.494170000000000E+010,-9.486672069923094E+000,-1.371909079996603E+002,
1.503165000000000E+010,-9.819092660747101E+000,7.788589600458334E+001,
1.512160000000000E+010,-9.620737049790984E+000,-6.987436017654103E+001,
1.521155000000000E+010,-1.007944608310369E+001,1.400721264679663E+002,
1.530150000000000E+010,-1.042705410213578E+001,-5.067679281546238E+000,
1.539145000000000E+010,-1.014955212813450E+001,-1.430629919064902E+002,
1.548140000000000E+010,-1.029463320968177E+001,6.381893312573341E+001,
1.557135000000000E+010,-1.284486850639667E+001,-8.370949513585275E+001,
1.566130000000000E+010,-1.098772830443302E+001,1.314306804787807E+002,
1.575125000000000E+010,-1.076028087490318E+001,-5.323928867611008E+000,
1.584120000000000E+010,-1.120743988413354E+001,-1.573985124778398E+002,
1.593115000000000E+010,-1.191656705764326E+001,6.037914202993478E+001,
1.602110000000000E+010,-1.083121114787875E+001,-9.359846528496938E+001,
1.611105000000000E+010,-1.081029248481506E+001,1.343144089437933E+002,
1.620100000000000E+010,-1.054682851784373E+001,-1.746056489989963E+001,
1.629095000000000E+010,-1.102760652592653E+001,-1.669394213352545E+002,
1.638090000000000E+010,-1.075128893981039E+001,4.076375904732607E+001,
1.647085000000000E+010,-1.069249158595869E+001,-9.557597022779623E+001,
1.656080000000000E+010,-1.096572989323626E+001,1.117509869661401E+002,
1.665075000000000E+010,-1.054365926738971E+001,-3.357742812640622E+001,
1.674070000000000E+010,-1.088538443468452E+001,1.697471449923776E+002,
1.683065000000000E+010,-1.148341576443252E+001,3.816479883371417E+001,
1.692060000000000E+010,-1.114962271629254E+001,-1.148436208177950E+002,
1.701055000000000E+010,-1.145008615559515E+001,9.538882833145345E+001,
1.710050000000000E+010,-1.157258261339217E+001,-5.561495792116678E+001,
1.719045000000000E+010,-1.131754295103390E+001,1.616442545609793E+002,
1.728040000000000E+010,-1.278502802151012E+001,7.144562563800817E+000,
1.737035000000000E+010,-1.185771190164669E+001,-1.255522582486627E+002,
1.746030000000000E+010,-1.213104025608743E+001,6.855732328673960E+001,
1.755025000000000E+010,-1.477552407237630E+001,-6.592930301427705E+001,
1.764020000000000E+010,-1.435799047206150E+001,1.528792270527835E+002,
1.773015000000000E+010,-1.267385094510058E+001,-1.434361769279406E+000,
1.782010000000000E+010,-1.644785029654522E+001,-1.521129917145767E+002,
1.791005000000000E+010,-1.421577761497084E+001,8.821410901541886E+001,
1.800000000000000E+010,-1.365045540788668E+001,-7.622403173080932E+001,
