# Version 1.00
#
freq[Hz],db:Trc1_S21,ang:Trc1_S21,
1.000000000000000E+007,-7.459039661111823E-002,-7.004124651398624E+001,
9.995000000000000E+007,-7.574842414121573E-001,1.211362950935776E+001,
1.899000000000000E+008,-9.801235348246113E-001,9.787304455161933E+001,
2.798500000000000E+008,-1.196177778183301E+000,-1.763803272123903E+002,
3.698000000000000E+008,-1.357302618258280E+000,-9.024540882782846E+001,
4.597500000000000E+008,-1.520566448095737E+000,-4.069552961057989E+000,
5.497000000000000E+008,-1.675931067064812E+000,8.224076647263230E+001,
6.396500000000000E+008,-1.829708424025381E+000,1.687280679657416E+002,
7.296000000000000E+008,-1.949089302608788E+000,-1.048024781676049E+002,
8.195500000000000E+008,-2.094613056692386E+000,-1.811942697586310E+001,
9.095000000000000E+008,-2.215096788001904E+000,6.822803606936591E+001,
9.994500000000000E+008,-2.326813191102603E+000,1.549226747293627E+002,
1.089400000000000E+009,-2.461144396153277E+000,-1.182796829017597E+002,
1.179350000000000E+009,-2.576320372985049E+000,-3.171499854913702E+001,
1.269300000000000E+009,-2.663407794098943E+000,5.507007594817797E+001,
1.359250000000000E+009,-2.806006676209708E+000,1.419269504320975E+002,
1.449200000000000E+009,-2.889103884110638E+000,-1.315544404438393E+002,
1.539150000000000E+009,-2.969620118105219E+000,-4.446589597222452E+001,
1.629100000000000E+009,-3.076335799761853E+000,4.232639304910347E+001,
1.719050000000000E+009,-3.192462727031192E+000,1.289915369244613E+002,
1.809000000000000E+009,-3.252203699721353E+000,-1.438770781941446E+002,
1.898950000000000E+009,-3.385038733315990E+000,-5.688789831794593E+001,
1.988900000000000E+009,-3.449341987266501E+000,2.951230058726456E+001,
2.078850000000000E+009,-3.511822222615394E+000,1.166741586414684E+002,
2.168800000000000E+009,-3.638228626689483E+000,-1.563885526532110E+002,
2.258750000000000E+009,-3.713351441755321E+000,-6.969535257227379E+001,
2.348700000000000E+009,-3.782680218251096E+000,1.743209442832014E+001,
2.438650000000000E+009,-3.880058711663236E+000,1.042324118864533E+002,
2.528600000000000E+009,-3.942689692800074E+000,-1.689415869372816E+002,
2.618550000000000E+009,-4.035801311889488E+000,-8.138531366724858E+001,
2.708500000000000E+009,-4.157304509302972E+000,4.866398977706834E+000,
2.798450000000000E+009,-4.192539235174318E+000,9.175252812969507E+001,
2.888400000000000E+009,-4.320016223596838E+000,1.788330139503778E+002,
2.978350000000000E+009,-4.421922339699639E+000,-9.446252816267867E+001,
3.068300000000000E+009,-4.451185453263763E+000,-7.376741277679746E+000,
3.158250000000000E+009,-4.596434801491055E+000,7.994726210321373E+001,
3.248200000000000E+009,-4.692473776948446E+000,1.664877511459941E+002,
3.338150000000000E+009,-4.712711107567200E+000,-1.064467448889102E+002,
3.428100000000000E+009,-4.794914252616514E+000,-1.924393871025383E+001,
3.518050000000000E+009,-4.909370216304583E+000,6.755412491438257E+001,
3.608000000000000E+009,-4.942839511962468E+000,1.545269995636770E+002,
3.697950000000000E+009,-5.041796542944231E+000,-1.182714067853297E+002,
3.787900000000000E+009,-5.118557817210777E+000,-3.171724319367714E+001,
3.877850000000000E+009,-5.150199398145928E+000,5.533591246380659E+001,
3.967800000000000E+009,-5.224394694698508E+000,1.422162703066541E+002,
4.057750000000000E+009,-5.320966937755315E+000,-1.307273672221067E+002,
4.147700000000000E+009,-5.383202005774908E+000,-4.403704068898060E+001,
4.237650000000000E+009,-5.479026996974619E+000,4.289242770404187E+001,
4.327600000000000E+009,-5.549771041122615E+000,1.296462190979713E+002,
4.417550000000000E+009,-5.706495190413835E+000,-1.434195695005322E+002,
4.507500000000000E+009,-5.743769038221816E+000,-5.695580666547525E+001,
4.597450000000000E+009,-5.772183921683943E+000,3.043455123514031E+001,
4.687400000000000E+009,-5.927388243309878E+000,1.184495036515977E+002,
4.777350000000000E+009,-6.148119255195319E+000,-1.553931094015454E+002,
4.867300000000000E+009,-6.134546241174276E+000,-6.945482376002509E+001,
4.957250000000000E+009,-6.175135176951203E+000,1.861008448021207E+001,
5.047200000000000E+009,-6.247276586045182E+000,1.060253207839403E+002,
5.137150000000000E+009,-6.361062826283821E+000,-1.670722259173320E+002,
5.227100000000000E+009,-6.453725198356557E+000,-8.057472704704885E+001,
5.317050000000000E+009,-6.584729229692444E+000,6.285837395243890E+000,
5.407000000000000E+009,-6.515055044880843E+000,9.312864453065012E+001,
5.496950000000000E+009,-6.582926171533060E+000,-1.791692041977748E+002,
5.586900000000000E+009,-6.820646367268054E+000,-9.170094236359967E+001,
5.676850000000000E+009,-7.026843655743174E+000,-6.310181596888857E+000,
5.766800000000000E+009,-6.873870299497166E+000,8.023160113168511E+001,
5.856750000000000E+009,-6.907199881109468E+000,1.687517031063388E+002,
5.946700000000000E+009,-7.252856592599112E+000,-1.035172289022393E+002,
6.036650000000000E+009,-7.393846732641235E+000,-1.792480380068330E+001,
6.126600000000000E+009,-7.411680885274112E+000,6.843332708468529E+001,
6.216550000000000E+009,-7.462813939048495E+000,1.563214718765149E+002,
6.306500000000000E+009,-7.392718523593636E+000,-1.159517119931921E+002,
6.396450000000000E+009,-7.565574230873738E+000,-2.809410450277339E+001,
6.486400000000000E+009,-7.772703946453375E+000,5.887237178940082E+001,
6.576350000000000E+009,-7.773925435877869E+000,1.442012584048332E+002,
6.666300000000000E+009,-7.617991760885827E+000,-1.284773423839111E+002,
6.756250000000000E+009,-7.664927481987536E+000,-4.081136729207167E+001,
6.846200000000000E+009,-7.780223248684242E+000,4.607639278875974E+001,
6.936150000000000E+009,-7.821334411660102E+000,1.321210137450794E+002,
7.026100000000000E+009,-7.890311667457968E+000,-1.411822719086170E+002,
7.116050000000000E+009,-7.987746524845915E+000,-5.479575811500013E+001,
7.206000000000000E+009,-8.102231865594714E+000,3.187977697767711E+001,
7.295950000000000E+009,-8.197247173623198E+000,1.178152974724661E+002,
7.385900000000000E+009,-8.189708683154009E+000,-1.550823942687397E+002,
7.475850000000000E+009,-8.340117566473593E+000,-6.790332353222176E+001,
7.565800000000000E+009,-8.635589057210613E+000,1.898084262179213E+001,
7.655750000000000E+009,-8.752805009924780E+000,1.053602571016968E+002,
7.745700000000000E+009,-8.887519319133299E+000,-1.682599399405870E+002,
7.835650000000000E+009,-8.908257796282927E+000,-8.098547210639026E+001,
7.925600000000000E+009,-8.956687870395294E+000,6.378729355083505E+000,
8.015550000000000E+009,-9.134821949297004E+000,9.399708056847413E+001,
8.105500000000000E+009,-9.373322270520413E+000,-1.792944445798841E+002,
8.195450000000000E+009,-9.287149203331385E+000,-9.306755126678871E+001,
8.285400000000000E+009,-9.318248817863651E+000,-6.539275964376310E+000,
8.375350000000000E+009,-9.400588794807291E+000,8.086715319050836E+001,
8.465300000000000E+009,-9.473682509076586E+000,1.670612801501347E+002,
8.555250000000000E+009,-9.494307833865021E+000,-1.046842007547285E+002,
8.645200000000000E+009,-9.593831018889313E+000,-1.879958468638265E+001,
8.735150000000000E+009,-9.647085436260728E+000,6.727912349502203E+001,
8.825100000000000E+009,-9.695525650408982E+000,1.533285577419105E+002,
8.915050000000000E+009,-9.771939666765331E+000,-1.199170658666969E+002,
9.005000000000000E+009,-9.851173475238371E+000,-3.344245631831853E+001,
9.094950000000000E+009,-9.981235080202103E+000,5.284785604174628E+001,
9.184900000000000E+009,-1.011416434441559E+001,1.386990539230272E+002,
9.274850000000000E+009,-1.022469479630980E+001,-1.350698076140065E+002,
9.364800000000000E+009,-1.033543673907990E+001,-4.853439283271689E+001,
9.454750000000000E+009,-1.052815054980351E+001,3.812318263311529E+001,
9.544700000000000E+009,-1.076603207003655E+001,1.239679218899780E+002,
9.634650000000000E+009,-1.091328424669566E+001,-1.502123822448845E+002,
9.724600000000000E+009,-1.097217851443889E+001,-6.389226840204088E+001,
9.814550000000000E+009,-1.111336230894876E+001,2.347103193783385E+001,
9.904500000000000E+009,-1.140943398381618E+001,1.104975196833782E+002,
9.994450000000000E+009,-1.168417093475388E+001,-1.629007952370812E+002,
1.008440000000000E+010,-1.173384803003262E+001,-7.713035149227352E+001,
1.017435000000000E+010,-1.176853017199036E+001,9.074966273384703E+000,
1.026430000000000E+010,-1.182523535381362E+001,9.655052317162001E+001,
1.035425000000000E+010,-1.207410936292703E+001,-1.761463683306752E+002,
1.044420000000000E+010,-1.225469961830217E+001,-9.002672931754167E+001,
1.053415000000000E+010,-1.229930031101978E+001,-4.407908772117153E+000,
1.062410000000000E+010,-1.239831898880140E+001,8.129853178362397E+001,
1.071405000000000E+010,-1.250477157860922E+001,1.676742043573923E+002,
1.080400000000000E+010,-1.269566194550831E+001,-1.061413634869192E+002,
1.089395000000000E+010,-1.286552007315157E+001,-2.004246905535912E+001,
1.098390000000000E+010,-1.307833584552907E+001,6.585950889655308E+001,
1.107385000000000E+010,-1.335443912623084E+001,1.520724979338093E+002,
1.116380000000000E+010,-1.368016796376912E+001,-1.223154097071876E+002,
1.125375000000000E+010,-1.386402357691587E+001,-3.686895066709997E+001,
1.134370000000000E+010,-1.406662930000432E+001,5.024407388368858E+001,
1.143365000000000E+010,-1.432397981637099E+001,1.369545395828286E+002,
1.152360000000000E+010,-1.466076944100548E+001,-1.367216663429834E+002,
1.161355000000000E+010,-1.497987614075732E+001,-4.957960168697640E+001,
1.170350000000000E+010,-1.534950809650117E+001,3.604417782324462E+001,
1.179345000000000E+010,-1.537039354896741E+001,1.230225482815557E+002,
1.188340000000000E+010,-1.558840770639475E+001,-1.497908274126542E+002,
1.197335000000000E+010,-1.590436679751606E+001,-6.278099725941036E+001,
1.206330000000000E+010,-1.622795975456129E+001,2.338932758889600E+001,
1.215325000000000E+010,-1.633952376334686E+001,1.112741963361795E+002,
1.224320000000000E+010,-1.645375502767644E+001,-1.623826926952705E+002,
1.233315000000000E+010,-1.652660203971259E+001,-7.575589986240283E+001,
1.242310000000000E+010,-1.654825388682566E+001,1.004649822241438E+001,
1.251305000000000E+010,-1.675499794676163E+001,9.577001576106106E+001,
1.260300000000000E+010,-1.694938229455001E+001,-1.785213238431756E+002,
1.269295000000000E+010,-1.712587817191281E+001,-9.318304880072218E+001,
1.278290000000000E+010,-1.740921150313402E+001,-8.061902239263548E+000,
1.287285000000000E+010,-1.773526629635969E+001,7.728908570778462E+001,
1.296280000000000E+010,-1.819714070784694E+001,1.626395482190454E+002,
1.305275000000000E+010,-1.855478438013578E+001,-1.112643752532007E+002,
1.314270000000000E+010,-1.883495822170250E+001,-2.546430105148581E+001,
1.323265000000000E+010,-1.927735030702855E+001,6.023673157155523E+001,
1.332260000000000E+010,-1.972959043880542E+001,1.458501321575585E+002,
1.341255000000000E+010,-2.046619445801499E+001,-1.298469119824268E+002,
1.350250000000000E+010,-2.320312408261811E+001,-2.965313071546843E+001,
1.359245000000000E+010,-2.059727167179668E+001,5.477454299488540E+001,
1.368240000000000E+010,-2.082264632536760E+001,1.391093596011089E+002,
1.377235000000000E+010,-2.125313935647831E+001,-1.350572638890470E+002,
1.386230000000000E+010,-2.165692402275849E+001,-4.867346250955009E+001,
1.395225000000000E+010,-2.185152271939333E+001,3.799843034942747E+001,
1.404220000000000E+010,-2.200783829017507E+001,1.243793156101833E+002,
1.413215000000000E+010,-2.233986501129970E+001,-1.498375935799999E+002,
1.422210000000000E+010,-2.265491703221296E+001,-6.357600380640415E+001,
1.431205000000000E+010,-2.296669435597718E+001,2.350964596896805E+001,
1.440200000000000E+010,-2.326800018830737E+001,1.100792825071670E+002,
1.449195000000000E+010,-2.341516651743825E+001,-1.639328279589974E+002,
1.458190000000000E+010,-2.368122689279167E+001,-7.771604568951217E+001,
1.467185000000000E+010,-2.409164311393944E+001,7.767991479653250E+000,
1.476180000000000E+010,-2.442560788775425E+001,9.360879568531449E+001,
1.485175000000000E+010,-2.483118331861014E+001,-1.796595540419931E+002,
1.494170000000000E+010,-2.508178023386183E+001,-9.292040769519684E+001,
1.503165000000000E+010,-2.546878740127175E+001,-7.057134385287864E+000,
1.512160000000000E+010,-2.580586829113779E+001,7.855406881647164E+001,
1.521155000000000E+010,-2.622277343790772E+001,1.642816668722143E+002,
1.530150000000000E+010,-2.658488095220505E+001,-1.082843731722127E+002,
1.539145000000000E+010,-2.697472828006072E+001,-2.190329725563710E+001,
1.548140000000000E+010,-2.740099986499065E+001,6.455636084413841E+001,
1.557135000000000E+010,-2.777201763399903E+001,1.502051227789604E+002,
1.566130000000000E+010,-2.830855708979148E+001,-1.231674998565309E+002,
1.575125000000000E+010,-2.866772221759717E+001,-3.618513476009746E+001,
1.584120000000000E+010,-2.903370325128055E+001,5.102185549413365E+001,
1.593115000000000E+010,-2.935732145561769E+001,1.369592135633067E+002,
1.602110000000000E+010,-2.974728761411222E+001,-1.369276192471249E+002,
1.611105000000000E+010,-3.014062596111662E+001,-5.014162079174739E+001,
1.620100000000000E+010,-3.060451038563844E+001,3.644021973373865E+001,
1.629095000000000E+010,-3.091902364223205E+001,1.226617297096779E+002,
1.638090000000000E+010,-3.123668411289035E+001,-1.511865583941906E+002,
1.647085000000000E+010,-3.167934641920149E+001,-6.450854175230752E+001,
1.656080000000000E+010,-3.212743528187582E+001,2.151004921332607E+001,
1.665075000000000E+010,-3.259080403364740E+001,1.082948754154819E+002,
1.674070000000000E+010,-3.287296288087500E+001,-1.657725453876697E+002,
1.683065000000000E+010,-3.324808750470960E+001,-8.035628709926070E+001,
1.692060000000000E+010,-3.375998742035873E+001,6.245448208523074E+000,
1.701055000000000E+010,-3.432973925987107E+001,9.201263302338029E+001,
1.710050000000000E+010,-3.484795415588584E+001,1.772078981308977E+002,
1.719045000000000E+010,-3.536862426503642E+001,-9.582199869606713E+001,
1.728040000000000E+010,-3.587610618973010E+001,-9.509913872465162E+000,
1.737035000000000E+010,-3.650396610377369E+001,7.707267243469664E+001,
1.746030000000000E+010,-3.711764702321932E+001,1.636310079304149E+002,
1.755025000000000E+010,-3.762576630421816E+001,-1.102686997434466E+002,
1.764020000000000E+010,-3.817352045622840E+001,-2.375552481267740E+001,
1.773015000000000E+010,-3.881254614099215E+001,6.290567338662008E+001,
1.782010000000000E+010,-3.954720377639753E+001,1.495283695069292E+002,
1.791005000000000E+010,-4.018639835169390E+001,-1.223822550111077E+002,
1.800000000000000E+010,-4.065535341489120E+001,-3.413608445716187E+001,
